start	end	F5:HeadMovement	F5:janej	F5:yes	F5:no	F5:word01	F5:Face	F5:pitch	F2:pitch	F5:intensity	F2:intensity	F5:x-pos	F5:y-pos	F5:weight	F5:velocity-r	F5:velocity-clock	F5:velocity-x	F5:velocity-y	F5:acceleration-r	F5:acceleration-clock	F5:acceleration-x	F5:acceleration-y	F5:jerk-r	F5:jerk-clock	F5:jerk-x	F5:jerk-y
7416	7420			0	0	0		214.16449441371168	587.9210719387906	21.070469108720257	19.636966768586454	200.022000	97.293700	0.945368	0.098001	9	-0.098000	0.000392	0.022519	11	-0.015510	-0.016326	0.000330	3	0.000321	-0.000075
7420	7424			0	0	0		214.16449441371168	587.9210719387906	24.319639849840268	27.3310801487208	200.013000	97.301000	0.952564	0.127933	9	-0.127933	0.000120	0.020309	11	-0.011832	-0.016506	0.001720	3	0.001719	-0.000073
7424	7428			0	0	0		214.16449441371168	587.9210719387906	25.498361769506865	28.16184365580042	199.116000	97.307900	0.947515	0.156944	10	-0.144067	-0.062258	0.023688	12	-0.004693	-0.023219	0.002832	2	0.002510	-0.001311
7428	7432			0	0	0		214.16449441371168	587.9210719387906	28.389977383529885	32.229812718993585	200.009000	97.302900	0.946177	0.181992	10	-0.144917	-0.110092	0.022041	12	0.003347	-0.021785	0.002812	4	0.002645	0.000955
7432	7436			0	0	0		214.16449441371168	587.9210719387906	28.42964514561592	32.391008342837495	199.089000	97.285500	0.955440	0.192358	11	-0.131917	-0.139998	0.018356	1	0.011045	-0.014660	0.006084	5	0.001978	0.005753
7436	7444			0	0	0		214.16449441371168	587.9210719387906	34.00860833411636	37.05701564294144	199.078000	97.290000	0.954127	0.185307	11	-0.102050	-0.154675	0.019271	4	0.015810	0.011018	0.007123	7	-0.002251	0.006758
7440	7448			0	0	0		214.16449441371168	288.6939963331952	37.06495783822761	39.897771123771115	199.056000	96.368000	0.931238	0.108795	11	-0.056500	-0.092973	0.028499	6	-0.000888	0.028485	0.006297	7	-0.003620	0.005152
7444	7448			0	0	0		214.16449441371168	288.6939963331952	37.06495783822761	39.897771123771115	199.053000	96.359400	0.924540	0.134747	9	-0.131350	-0.030067	0.040286	7	-0.015456	0.037203	0.003216	8	-0.002636	0.001842
7448	7452			0	0	0		214.16449441371168	288.6939963331952	22.269378551706186	22.890202431879658	199.026000	96.373100	0.923313	0.120551	8	-0.115967	0.032928	0.037267	6	-0.005154	0.036909	0.002135	1	0.000791	-0.001982
7452	7456			0	0	0		214.16449441371168	290.4598732621729	36.07348760427026	40.20746519430191	199.036000	96.383100	0.927902	0.174082	8	-0.146300	0.094345	0.031403	7	-0.014395	0.027910	0.005186	12	-0.000233	-0.005180
7456	7460			0	0	0		214.16449441371168	220.53793504635826	35.03770323832465	37.76163941788532	199.036000	97.292000	0.932515	0.223032	8	-0.159550	0.155843	0.011709	7	-0.004720	0.010715	0.007725	1	0.003794	-0.006729
7460	7464			0	0	0		214.16449441371168	220.53793504635826	22.65798815492189	20.35034816525833	198.107000	97.299200	0.927217	0.211795	8	-0.158433	0.140557	0.016365	1	0.006147	-0.015166	0.008767	2	0.006725	-0.005624
7464	7468			0	0	0		214.16449441371168	220.53793504635826	21.03092905948281	17.32829624906264	198.092000	97.304600	0.917154	0.177795	8	-0.140483	0.108975	0.038516	2	0.031939	-0.021526	0.005709	3	0.005649	-0.000823
7468	7472			0	0	0		214.16449441371168	220.53793504635826	37.93260965100217	41.422518357683714	198.077000	97.303100	0.912837	0.079573	7	-0.048067	0.063415	0.049975	2	0.044565	-0.022616	0.002629	4	0.002261	0.001340
7472	7476			0	0	0		214.16449441371168	194.635102180201	36.908131030317705	40.572567519575486	198.094000	97.303100	0.926229	0.045253	3	0.045217	0.001810	0.048343	2	0.045528	-0.016255	0.003493	7	-0.002031	0.002842
7476	7480			0	0	0		214.16449441371168	194.635102180201	35.18958616725208	40.04735848343103	198.091000	97.307100	0.925390	0.141786	3	0.141783	0.000788	0.032734	3	0.032725	-0.000776	0.006269	8	-0.005576	0.002865
7480	7484			0	0	0		214.16449441371168	182.5933770329339	33.85453284512113	40.41586699162303	198.106000	97.308200	0.926474	0.160272	3	0.160267	-0.001248	0.007144	3	0.007110	-0.000696	0.006802	9	-0.006801	0.000125
7484	7488			0	0	0		214.16449441371168	176.44055584674769	36.79252203736763	40.68939718436563	199.020000	97.318600	0.936149	0.164014	3	0.164000	-0.002137	0.004291	9	-0.004290	0.000051	0.003895	9	-0.003890	0.000195
7488	7492			0	0	0		214.16449441371168	171.76899027536533	36.491536889626104	41.05698652695423	199.019000	97.301800	0.931216	0.149068	3	0.149067	-0.000628	0.014390	9	-0.014376	0.000635	0.002803	9	-0.002801	0.000095
7492	7496			0	0	0		214.16449441371168	171.3892949067624	31.550122533284863	36.33292712810548	199.064000	97.304100	0.951124	0.119856	3	0.119850	0.001237	0.020928	9	-0.020921	0.000551	0.001993	3	0.001993	0.000016
7496	7500			0	0	0		214.16449441371168	161.60030311705356	36.84382246565225	39.92844677008753	199.061000	97.282900	0.934774	0.074297	3	0.074283	0.001405	0.006649	9	-0.006635	0.000433	0.004014	3	0.004014	-0.000050
7500	7504			0	0	0		214.16449441371168	154.79254645743382	33.792931728795146	38.328450560184095	199.097000	97.289300	0.942510	0.073847	3	0.073833	0.001422	0.005408	3	0.005402	0.000255	0.004075	3	0.004073	-0.000126
7504	7508			0	0	0		214.16449441371168	82.77451328926755	36.20165723703282	38.94364583639423	199.087000	97.323300	0.952016	0.116456	3	0.116433	0.002305	0.019719	3	0.019719	-0.000047	0.002085	3	0.002080	-0.000132
7508	7512			0	0	0		214.16449441371168	82.77451328926755	51.34532313456524	47.54033972452477	199.104000	97.333700	0.965793	0.142675	3	0.142667	0.001575	0.013557	3	0.013547	-0.000519	0.002561	9	-0.002559	-0.000094
7512	7516			0	0	0		214.16449441371168	82.77451328926755	45.10249337264925	44.580234503826155	199.115000	97.310900	0.952693	0.157289	3	0.157283	0.001353	0.004733	3	0.004704	-0.000526	0.003509	9	-0.003508	0.000080
7516	7520			0	0	0		214.16449441371168	249.24826578556622	43.26506681535328	41.81527271420965	200.029000	97.308200	0.957577	0.155517	3	0.155517	-0.000228	0.005612	9	-0.005603	-0.000322	0.003568	9	-0.003566	0.000131
7520	7524			0	0	0		214.16449441371168	249.24826578556622	36.66695020000182	34.337562331424124	200.013000	97.308200	0.958708	0.141418	3	0.141417	-0.000698	0.014429	9	-0.014427	0.000255	0.000634	4	0.000561	0.000295
7524	7528			0	0	0		214.16449441371168	249.24826578556622	31.02269624619037	28.372282497322526	200.017000	97.302400	0.956625	0.111319	3	0.111317	0.000662	0.004388	8	-0.004128	0.001487	0.003958	5	0.002325	0.003203
7528	7532			0	0	0		214.16449441371168	249.24826578556622	27.91894320399041	27.691181087847575	200.036000	97.307300	0.949494	0.130485	3	0.130383	0.005143	0.018144	6	0.001918	0.018042	0.006641	4	0.005899	0.003052
7532	7535			0	0	0		214.16449441371168	249.24826578556622	25.65646893501295	23.729738760272475	200.037000	97.314200	0.950416	0.138558	4	0.119533	0.070072	0.034475	5	0.024261	0.024494	0.015058	4	0.014430	0.004305
7536	7540			0	0	0	Laughter	214.16449441371168	249.24826578556622	48.11374109812964	41.94612817726167	200.051000	97.330700	0.952728	0.249356	4	0.218383	0.120363	0.098875	4	0.090584	0.039633	0.014823	4	0.013855	0.005270
7540	7544			0	0	0	Laughter	214.16449441371168	249.24826578556622	46.059039933929505	45.78060472751688	200.062000	97.326000	0.936474	0.523109	4	0.476133	0.216657	0.129288	4	0.116276	0.056526	0.007375	4	0.005619	0.004777
7544	7548			0	0	0	Laughter	214.16449441371168	249.24826578556622	40.80773437683448	36.045978179858146	201.022000	97.360500	0.940558	0.797370	4	0.718283	0.346220	0.137283	4	0.118700	0.068969	0.009189	6	-0.001680	0.009034
7548	7552			0	0	0	Laughter	214.16449441371168	249.24826578556622	43.98595642324767	36.23505715758407	201.039000	98.302400	0.949194	1.051435	4	0.929133	0.492165	0.147171	5	0.100641	0.107381	0.013035	8	-0.011447	0.006235
7552	7556			0	0	0	Laughter	214.16449441371168	249.24826578556622	43.79796012718852	36.172272329722745	202.023000	98.334100	0.906096	1.332654	4	1.090083	0.766607	0.127292	5	0.051488	0.116414	0.016111	9	-0.015850	-0.002893
7556	7560			0	0	0	Laughter	214.16449441371168	249.24826578556622	41.49963113113454	34.340590560272936	204.925000	99.280600	0.882917	1.500616	4	1.125083	0.992993	0.086069	6	0.004793	0.085936	0.020180	10	-0.017807	-0.009494
7560	7568			0	0	0	Laughter	265.81680766523476	249.24826578556622	42.91545003542303	35.702838498184974	205.914000	100.280000	0.873165	1.545629	5	1.092500	1.093350	0.067655	7	-0.047189	0.048481	0.015702	11	-0.009413	-0.012568
7564	7572			0	0	0	Laughter	248.72210884377827	249.24826578556622	33.63625095890584	30.277102354599382	206.895000	101.264000	0.892929	1.504759	5	0.995517	1.128382	0.052667	9	-0.051089	0.012797	0.015203	12	-0.003546	-0.014783
7568	7572			0	0	0	Laughter	248.72210884377827	249.24826578556622	33.63625095890584	30.277102354599382	207.860000	104.172000	0.925318	1.465389	5	0.897917	1.158063	0.074643	10	-0.069505	-0.027217	0.008864	1	0.002774	-0.008419
7572	7576			0	0	0	Laughter	248.72210884377827	249.24826578556622	29.463890314267967	32.020944732200235	207.909000	105.145000	0.950354	1.269777	5	0.718817	1.046727	0.063815	10	-0.045786	-0.044452	0.008308	2	0.007647	-0.003249
7576	7580			0	0	0	Laughter	209.07950685279854	208.7996544038132	50.98296011003023	53.33312183918782	208.846000	105.214000	0.929590	1.217672	5	0.701217	0.995500	0.042046	11	-0.014016	-0.039641	0.011072	3	0.010989	0.001353
7580	7584			0	0	0	Laughter	201.12467194396172	201.04175912907675	46.55076433541825	49.041182506422615	208.876000	106.163000	0.927880	1.135407	5	0.652983	0.928850	0.043767	12	0.010748	-0.042427	0.002796	4	0.002386	0.001458
7584	7588			0	0	0	Laughter	216.7692536415678	191.4767654398279	41.720675360372525	44.73453193564435	210.809000	107.106000	0.875439	1.061323	5	0.715933	0.783483	0.044375	1	0.012380	-0.042613	0.002557	12	0.000513	-0.002505
7588	7592			0	0	0	Laughter	216.7692536415678	186.03820098902412	39.12515049531436	42.61555729397795	210.799000	107.152000	0.862050	1.046811	4	0.747900	0.732433	0.047452	12	0.011721	-0.045981	0.006232	11	-0.003685	-0.005026
7592	7596			0	0	0	Laughter	216.7692536415678	201.91184546958004	37.95070277778236	40.508418508325754	211.788000	109.075000	0.839383	0.958405	4	0.746967	0.600483	0.077220	12	-0.012599	-0.076185	0.011619	11	-0.006610	-0.009556
7596	7600			0	0	0	Laughter	216.7692536415678	217.6239420256804	43.22928429980302	46.0867650516147	211.808000	110.043000	0.834891	0.821613	4	0.713017	0.408233	0.104726	11	-0.029206	-0.100571	0.007802	11	-0.002549	-0.007374
7600	7604			0	0	0	Laughter	228.46423602673008	227.2020774692986	45.5172934060335	48.55443617159192	213.723000	110.073000	0.856294	0.630285	4	0.587050	0.229417	0.116938	11	-0.034625	-0.111695	0.005320	11	-0.002159	-0.004862
7604	7608			0	0	0	Laughter	201.60007717555726	204.00428474657264	48.33140989873205	47.69827706962574	213.759000	110.055000	0.870377	0.587302	3	0.587100	0.015400	0.136365	12	-0.025678	-0.133925	0.002964	4	0.002573	0.001473
7608	7612			0	0	0	Laughter	231.68782120480404	237.8347118338969	47.71204875454203	46.8741842604452	214.679000	109.096000	0.875327	0.608511	2	0.506083	-0.337883	0.125129	12	-0.027841	-0.121992	0.009581	6	-0.000255	0.009578
7612	7616			0	0	0	Laughter	113.55531028202485	113.11900746878833	48.41540838273044	49.482518148432305	214.705000	109.093000	0.885364	0.712658	1	0.491117	-0.516417	0.067322	11	-0.023083	-0.063241	0.014303	5	0.004788	0.013477
7616	7620			0	0	0	Laughter	106.80857131547207	108.67716725626882	49.34549443657342	47.73458962130831	214.752000	109.078000	0.895277	0.693629	1	0.396017	-0.569467	0.034281	11	-0.010860	-0.032515	0.014319	5	0.009764	0.010473
7620	7624			0	0	0	Laughter	244.07153772330608	243.88779698208424	43.59065022549723	41.96378326726168	215.695000	108.100000	0.905614	0.760651	1	0.443633	-0.617883	0.044277	3	0.043850	-0.006139	0.014545	4	0.011378	0.009061
7624	7628			0	0	0	Laughter	244.07153772330608	243.88779698208424	33.22837944588345	29.61285973817032	215.713000	106.202000	0.923955	0.810143	1	0.558217	-0.587133	0.062923	4	0.059431	0.020669	0.008429	6	0.001354	0.008320
7628	7632			0	0	0	Laughter	244.07153772330608	243.88779698208424	36.14330879966492	40.22975545289884	216.696000	106.182000	0.901652	0.906511	2	0.716083	-0.555867	0.066695	4	0.055383	0.037161	0.007867	7	-0.004851	0.006194
7632	7636			0	0	0	Laughter	244.07153772330608	243.88779698208424	38.929123664939276	41.202883548752574	216.696000	106.131000	0.927051	0.905844	2	0.779033	-0.462233	0.065158	5	0.019880	0.062051	0.015391	8	-0.014766	0.004341
7636	7640			0	0	0	Laughter	213.4447385074721	213.79629367247117	49.23796173787457	50.8058184363163	217.665000	105.185000	0.909622	0.806972	2	0.747900	-0.303067	0.077587	7	-0.034731	0.069380	0.015640	9	-0.015533	-0.001825
7640	7644			0	0	0	Laughter	217.1447211029167	199.43964634435787	46.02750648665329	47.7634195221302	219.610000	105.173000	0.894159	0.653937	3	0.634383	-0.158717	0.085429	8	-0.069582	0.049563	0.016098	10	-0.014832	-0.006257
7644	7652			0	0	0	Laughter	217.1447211029167	197.08565676691086	45.38908858317639	48.285644457284974	220.572000	105.159000	0.888902	0.471223	2	0.454433	-0.124667	0.119414	9	-0.117069	0.023552	0.008286	10	-0.006504	-0.005133
7648	7656			0	0	0	Laughter	230.14646864138354	230.83506389264446	46.29150314025809	47.7983249962621	220.589000	105.114000	0.868397	0.238522	2	0.226867	-0.073650	0.110753	9	-0.107941	0.024798	0.013856	3	0.013800	-0.001238
7652	7656			0	0	0	Laughter	230.14646864138354	230.83506389264446	46.29150314025809	47.7983249962621	220.590000	105.121000	0.875929	0.033153	3	0.032067	-0.008417	0.045453	8	-0.041462	0.018626	0.020888	3	0.020697	-0.002820
7656	7660			0	0	0	Laughter	130.79345477108015	250.76899738386925	43.09243965274622	43.7857682082499	219.635000	105.132000	0.868613	0.062850	3	0.062800	-0.002500	0.025970	3	0.025768	0.003230	0.021387	3	0.021189	-0.002902
7660	7664			0	0	0	Laughter	130.79345477108015	130.8059712805041	40.53259996356496	35.797016698850356	219.601000	105.108000	0.862871	0.177040	3	0.176967	0.005083	0.077876	3	0.077818	0.002997	0.011015	3	0.011014	-0.000144
7664	7668			0	0	0	Laughter	130.79345477108015	130.8059712805041	43.58295898768918	35.9546770901395	218.630000	105.114000	0.877414	0.325534	3	0.325367	0.010450	0.082822	3	0.082795	0.002108	0.004483	9	-0.004467	-0.000379
7668	7672			0	0	0	Laughter	130.79345477108015	130.8059712805041	42.430322470433566	34.796079806681334	219.605000	105.124000	0.876109	0.441674	3	0.441517	0.011800	0.052036	3	0.052034	0.000465	0.014588	9	-0.014581	-0.000466
7672	7675			0	0	0	Laughter	130.79345477108015	130.8059712805041	36.19496019360648	28.989974085895174	222.504000	105.165000	0.930389	0.522759	3	0.522633	0.011450	0.006980	3	0.006965	-0.000462	0.017299	9	-0.017295	-0.000383
7676	7680			0	0	0	Smile	130.79345477108015	130.8059712805041	28.72384746749701	22.488824406178587	222.534000	105.200000	0.956756	0.490230	3	0.490117	0.010550	0.047029	9	-0.047003	-0.001545	0.017173	9	-0.017169	-0.000354
7680	7684			0	0	0	Smile	130.79345477108015	130.8059712805041	22.944144790655045	17.853199284332234	222.576000	105.191000	0.956359	0.406562	3	0.406517	0.006083	0.092670	9	-0.092631	-0.002703	0.004500	9	-0.004497	-0.000181
7684	7686			0	0	0	Smile	130.79345477108015	130.8059712805041	30.635835533805622	24.014720307244698	222.572000	105.195000	0.949283	0.131301	3	0.131300	0.000500	0.096682	9	-0.096645	-0.002709	0.005911	3	0.005910	0.000105
7688	7692			0	0	1	Smile	130.79345477108015	130.8059712805041	48.31591189450145	40.99788244737248	222.541000	105.181000	0.949465	0.050543	9	-0.050283	-0.005117	0.051454	9	-0.051407	-0.002199	0.014834	3	0.014832	0.000274
7692	7696			0	0	1	Smile	136.93282905602678	136.8435759624424	61.1377473888395	53.81548891530308	222.518000	105.174000	0.940644	0.039469	9	-0.038517	-0.008617	0.005635	3	0.005543	-0.001012	0.011657	3	0.011653	0.000316
7696	7700			0	0	1	Smile	294.98219860292073	290.2646190524886	65.57815385681303	59.098642415613284	222.515000	105.161000	0.931032	0.025962	10	-0.024333	-0.009050	0.010680	3	0.010678	-0.000184	0.001480	3	0.001455	0.000270
7700	7704			0	0	1	Smile	364.41072817085	364.3256232067656	58.674812782929166	52.264812960114284	221.583000	105.150000	0.922651	0.010519	11	-0.004300	-0.009600	0.012561	3	0.012552	0.000450	0.000268	5	0.000120	0.000240
7704	7708			0	0	1	Smile	394.9989095178356	387.15148671337516	69.72334731695332	62.730920352622334	222.507000	105.146000	0.920101	0.016152	2	0.014433	-0.007250	0.011310	3	0.011220	0.001424	0.001205	9	-0.001169	0.000293
7708	7712			0	0	1	Smile	432.3648584336301	432.05610489264023	62.5524475122661	55.63761495743815	222.509000	105.132000	0.917750	0.032215	3	0.032017	-0.003567	0.007906	4	0.007599	0.002181	0.001999	9	-0.001985	0.000232
7712	7714			0	0	1	Smile	434.8192788448899	434.48350923769243	58.3922649372179	52.950980996826964	222.509000	105.126000	0.923918	0.049581	3	0.049550	0.001750	0.003509	5	0.002111	0.002803	0.003114	6	0.000760	0.003020
7716	7720			0	0	1	Smile	472.7214538270243	474.7694228778564	48.65462266249183	41.60992800118491	222.538000	105.117000	0.933786	0.068013	3	0.067600	0.007483	0.021463	5	0.010655	0.018632	0.003077	5	0.001329	0.002775
7720	7724			0	0	1	Smile	432.48913448553486	444.52165430022677	58.39891343190382	49.66450498625373	222.514000	105.137000	0.923746	0.100359	5	0.069133	0.072750	0.025238	5	0.007247	0.024175	0.001590	4	0.001294	0.000924
7724	7725			0	0	1	Smile	425.55038470105364	411.91610362062994	43.08596540714745	36.62296822877439	222.521000	105.160000	0.942656	0.167952	5	0.116667	0.120817	0.030918	4	0.022139	0.021583	0.004672	1	0.002094	-0.004177
7728	7732			0	0	1	Smile	410.2129990865254	411.91610362062994	43.30638165294401	36.370852190149414	222.544000	105.188000	0.954295	0.210721	5	0.148233	0.149767	0.015602	3	0.015473	-0.002001	0.006594	11	-0.002828	-0.005957
7732	7736			0	0	1	Smile	366.2183160784063	367.7278024115323	59.119808476279616	51.139562844908056	222.562000	105.214000	0.950487	0.192909	4	0.163717	0.102033	0.019436	1	0.005255	-0.018712	0.006675	11	-0.003954	-0.005378
7736	7740			0	0	1	Smile	333.6656190719988	335.4017986288939	56.96121085464349	50.47604678418013	223.491000	106.134000	0.944296	0.172360	4	0.164117	0.052667	0.030012	12	-0.005934	-0.029420	0.005050	10	-0.003985	-0.003102
7740	7744			0	0	1	Smile	310.6886304120292	311.0376068572823	56.23286354200328	48.651711295681395	223.503000	106.127000	0.944156	0.146000	3	0.146000	0.000367	0.036842	11	-0.016728	-0.032825	0.002843	9	-0.002843	0.000068
7744	7746			0	0	1	Smile	292.99824654428767	293.0740790569868	57.82768817423715	50.24589533631065	223.510000	106.103000	0.947680	0.122575	2	0.111100	-0.051783	0.037138	11	-0.023035	-0.029131	0.003245	6	-0.000734	0.003161
7748	7752			0	0	1	Smile	287.32551395124943	287.12664522444715	63.35049489808533	56.94217060862756	223.519000	105.203000	0.959827	0.119585	1	0.062883	-0.101717	0.030001	10	-0.023617	-0.018501	0.005586	5	0.001552	0.005366
7752	7760			0	0	1	Smile	343.79662537293746	172.77589072170207	62.81438778356935	55.77935677612059	223.509000	105.209000	0.957640	0.148633	12	0.000083	-0.148633	0.016515	9	-0.016446	-0.001507	0.006739	5	0.003333	0.005857
7756	7764			0	0	1	Smile	302.3781453920522	311.578072999945	52.54631253249052	45.812781011212245	223.504000	105.163000	0.960905	0.117867	12	0.000067	-0.117867	0.021452	6	0.001084	0.021424	0.007427	4	0.006236	0.004034
7760	7764			0	0	1	Smile	302.3781453920522	311.578072999945	52.54631253249052	45.812781011212245	223.491000	105.143000	0.944215	0.071592	12	0.004233	-0.071467	0.029575	5	0.017951	0.023505	0.003380	2	0.003223	-0.001019
7764	7768			0	0	1	Smile	302.3781453920522	301.3101510976912	56.3410790692499	46.682801715351104	223.505000	105.137000	0.941043	0.069709	3	0.069250	-0.007983	0.030781	4	0.025015	0.017936	0.005211	2	0.004483	-0.002657
7768	7772			0	0	1	Smile	302.3781453920522	301.3101510976912	54.304192355264334	44.85996435127941	223.504000	105.137000	0.949419	0.120800	3	0.120767	-0.002817	0.040698	3	0.040591	0.002951	0.005193	3	0.005189	0.000210
7772	7776			0	0	1	Smile	302.3781453920522	301.3101510976912	47.17189837035499	38.03775793140344	223.520000	105.133000	0.943753	0.219178	3	0.219133	0.004417	0.059952	4	0.056769	0.019273	0.003147	5	0.001374	0.002832
